# Pulseq sequence file
# Created by PyPulseq

[VERSION]
major 1
minor 4
revision 2

[DEFINITIONS]
AdcRasterTime 1e-07 
BaseResolution 146 
BlockDurationRaster 1e-05 
FOV 0.22 0.22 0.0555 
GradientRasterTime 1e-05 
Name epi 
PhaseResolution 1 
RadiofrequencyRasterTime 1e-06 
ReadoutOversamplingFactor 1.80821918 
ReceiverGainHigh 1 
SliceGap 0.0045 
SlicePositions -0.027 -0.015 -0.003 0.009 0.021 -0.021 -0.009 0.003 0.015 0.027 
SliceThickness 0.0015 
TargetGriddedSamples 264 
TotalDuration 5.5416 
TrapezoidGriddingParameters 0.00037 0 0.00037 5.3e-05 0.0006336 
kSpaceCenterLine 73 

# Format of blocks:
# NUM DUR RF  GX  GY  GZ  ADC  EXT
[BLOCKS]
     1 100   0   0   0   0  0  1
     2 350   0   1   2   1  0  0
     3 523   1   0   0   0  0  0
     4 350   0   2   1   2  0  0
     5  10   0   0   0   0  0  2
     6 318   2   0   0   3  0  0
     7  70   0   0   0   4  0  0
     8 2233   0   0   0   0  0  0
     9  96   0   0   0   0  0  0
    10  95   0   5   5   5  0  0
    11 322   3   0   0   6  0  0
    12  95   0   5   5   5  0  0
    13 107   0   0   0   0  0  0
    14 1029   0   0   0   0  0  0
    15  52   0   8   7   0  0  0
    16  74   0   9  10   0  1  0
    17  74   0  11  12   0  1  0
    18  74   0   9  12   0  1  0
    19  74   0  11  12   0  1  0
    20  74   0   9  12   0  1  0
    21  74   0  11  12   0  1  0
    22  74   0   9  12   0  1  0
    23  74   0  11  12   0  1  0
    24  74   0   9  12   0  1  0
    25  74   0  11  12   0  1  0
    26  74   0   9  12   0  1  0
    27  74   0  11  12   0  1  0
    28  74   0   9  12   0  1  0
    29  74   0  11  12   0  1  0
    30  74   0   9  12   0  1  0
    31  74   0  11  12   0  1  0
    32  74   0   9  12   0  1  0
    33  74   0  11  12   0  1  0
    34  74   0   9  12   0  1  0
    35  74   0  11  12   0  1  0
    36  74   0   9  12   0  1  0
    37  74   0  11  12   0  1  0
    38  74   0   9  12   0  1  0
    39  74   0  11  12   0  1  0
    40  74   0   9  12   0  1  0
    41  74   0  11  12   0  1  0
    42  74   0   9  12   0  1  0
    43  74   0  11  12   0  1  0
    44  74   0   9  12   0  1  0
    45  74   0  11  12   0  1  0
    46  74   0   9  12   0  1  0
    47  74   0  11  12   0  1  0
    48  74   0   9  12   0  1  0
    49  74   0  11  12   0  1  0
    50  74   0   9  12   0  1  0
    51  74   0  11  12   0  1  0
    52  74   0   9  12   0  1  0
    53  74   0  11  12   0  1  0
    54  74   0   9  12   0  1  0
    55  74   0  11  12   0  1  0
    56  74   0   9  12   0  1  0
    57  74   0  11  12   0  1  0
    58  74   0   9  12   0  1  0
    59  74   0  11  12   0  1  0
    60  74   0   9  12   0  1  0
    61  74   0  11  12   0  1  0
    62  74   0   9  12   0  1  0
    63  74   0  11  12   0  1  0
    64  74   0   9  12   0  1  0
    65  74   0  11  12   0  1  0
    66  74   0   9  12   0  1  0
    67  74   0  11  12   0  1  0
    68  74   0   9  12   0  1  0
    69  74   0  11  12   0  1  0
    70  74   0   9  13   0  1  0
    71 17888   0   0   0   0  0  0
    72 100   0   0   0   0  0  1
    73 350   0   1   2   1  0  0
    74 523   1   0   0   0  0  0
    75 350   0   2   1   2  0  0
    76  10   0   0   0   0  0  2
    77 318   4   0   0   3  0  0
    78  70   0   0   0   4  0  0
    79 2233   0   0   0   0  0  0
    80  96   0   0   0   0  0  0
    81  95   0   5   5   5  0  0
    82 322   5   0   0  14  0  0
    83  95   0   5   5   5  0  0
    84 107   0   0   0   0  0  0
    85 1029   0   0   0   0  0  0
    86  52   0   8   7   0  0  0
    87  74   0   9  10   0  1  0
    88  74   0  11  12   0  1  0
    89  74   0   9  12   0  1  0
    90  74   0  11  12   0  1  0
    91  74   0   9  12   0  1  0
    92  74   0  11  12   0  1  0
    93  74   0   9  12   0  1  0
    94  74   0  11  12   0  1  0
    95  74   0   9  12   0  1  0
    96  74   0  11  12   0  1  0
    97  74   0   9  12   0  1  0
    98  74   0  11  12   0  1  0
    99  74   0   9  12   0  1  0
   100  74   0  11  12   0  1  0
   101  74   0   9  12   0  1  0
   102  74   0  11  12   0  1  0
   103  74   0   9  12   0  1  0
   104  74   0  11  12   0  1  0
   105  74   0   9  12   0  1  0
   106  74   0  11  12   0  1  0
   107  74   0   9  12   0  1  0
   108  74   0  11  12   0  1  0
   109  74   0   9  12   0  1  0
   110  74   0  11  12   0  1  0
   111  74   0   9  12   0  1  0
   112  74   0  11  12   0  1  0
   113  74   0   9  12   0  1  0
   114  74   0  11  12   0  1  0
   115  74   0   9  12   0  1  0
   116  74   0  11  12   0  1  0
   117  74   0   9  12   0  1  0
   118  74   0  11  12   0  1  0
   119  74   0   9  12   0  1  0
   120  74   0  11  12   0  1  0
   121  74   0   9  12   0  1  0
   122  74   0  11  12   0  1  0
   123  74   0   9  12   0  1  0
   124  74   0  11  12   0  1  0
   125  74   0   9  12   0  1  0
   126  74   0  11  12   0  1  0
   127  74   0   9  12   0  1  0
   128  74   0  11  12   0  1  0
   129  74   0   9  12   0  1  0
   130  74   0  11  12   0  1  0
   131  74   0   9  12   0  1  0
   132  74   0  11  12   0  1  0
   133  74   0   9  12   0  1  0
   134  74   0  11  12   0  1  0
   135  74   0   9  12   0  1  0
   136  74   0  11  12   0  1  0
   137  74   0   9  12   0  1  0
   138  74   0  11  12   0  1  0
   139  74   0   9  12   0  1  0
   140  74   0  11  12   0  1  0
   141  74   0   9  13   0  1  0
   142 17888   0   0   0   0  0  0
   143 100   0   0   0   0  0  1
   144 350   0   1   2   1  0  0
   145 523   1   0   0   0  0  0
   146 350   0   2   1   2  0  0
   147  10   0   0   0   0  0  2
   148 318   6   0   0   3  0  0
   149  70   0   0   0   4  0  0
   150 2233   0   0   0   0  0  0
   151  96   0   0   0   0  0  0
   152  95   0   5   5   5  0  0
   153 322   7   0   0   6  0  0
   154  95   0   5   5   5  0  0
   155 107   0   0   0   0  0  0
   156 1029   0   0   0   0  0  0
   157  52   0   8   7   0  0  0
   158  74   0   9  10   0  1  0
   159  74   0  11  12   0  1  0
   160  74   0   9  12   0  1  0
   161  74   0  11  12   0  1  0
   162  74   0   9  12   0  1  0
   163  74   0  11  12   0  1  0
   164  74   0   9  12   0  1  0
   165  74   0  11  12   0  1  0
   166  74   0   9  12   0  1  0
   167  74   0  11  12   0  1  0
   168  74   0   9  12   0  1  0
   169  74   0  11  12   0  1  0
   170  74   0   9  12   0  1  0
   171  74   0  11  12   0  1  0
   172  74   0   9  12   0  1  0
   173  74   0  11  12   0  1  0
   174  74   0   9  12   0  1  0
   175  74   0  11  12   0  1  0
   176  74   0   9  12   0  1  0
   177  74   0  11  12   0  1  0
   178  74   0   9  12   0  1  0
   179  74   0  11  12   0  1  0
   180  74   0   9  12   0  1  0
   181  74   0  11  12   0  1  0
   182  74   0   9  12   0  1  0
   183  74   0  11  12   0  1  0
   184  74   0   9  12   0  1  0
   185  74   0  11  12   0  1  0
   186  74   0   9  12   0  1  0
   187  74   0  11  12   0  1  0
   188  74   0   9  12   0  1  0
   189  74   0  11  12   0  1  0
   190  74   0   9  12   0  1  0
   191  74   0  11  12   0  1  0
   192  74   0   9  12   0  1  0
   193  74   0  11  12   0  1  0
   194  74   0   9  12   0  1  0
   195  74   0  11  12   0  1  0
   196  74   0   9  12   0  1  0
   197  74   0  11  12   0  1  0
   198  74   0   9  12   0  1  0
   199  74   0  11  12   0  1  0
   200  74   0   9  12   0  1  0
   201  74   0  11  12   0  1  0
   202  74   0   9  12   0  1  0
   203  74   0  11  12   0  1  0
   204  74   0   9  12   0  1  0
   205  74   0  11  12   0  1  0
   206  74   0   9  12   0  1  0
   207  74   0  11  12   0  1  0
   208  74   0   9  12   0  1  0
   209  74   0  11  12   0  1  0
   210  74   0   9  12   0  1  0
   211  74   0  11  12   0  1  0
   212  74   0   9  13   0  1  0
   213 17888   0   0   0   0  0  0
   214 100   0   0   0   0  0  1
   215 350   0   1   2   1  0  0
   216 523   1   0   0   0  0  0
   217 350   0   2   1   2  0  0
   218  10   0   0   0   0  0  2
   219 318   8   0   0   3  0  0
   220  70   0   0   0   4  0  0
   221 2233   0   0   0   0  0  0
   222  96   0   0   0   0  0  0
   223  95   0   5   5   5  0  0
   224 322   9   0   0  14  0  0
   225  95   0   5   5   5  0  0
   226 107   0   0   0   0  0  0
   227 1029   0   0   0   0  0  0
   228  52   0   8   7   0  0  0
   229  74   0   9  10   0  1  0
   230  74   0  11  12   0  1  0
   231  74   0   9  12   0  1  0
   232  74   0  11  12   0  1  0
   233  74   0   9  12   0  1  0
   234  74   0  11  12   0  1  0
   235  74   0   9  12   0  1  0
   236  74   0  11  12   0  1  0
   237  74   0   9  12   0  1  0
   238  74   0  11  12   0  1  0
   239  74   0   9  12   0  1  0
   240  74   0  11  12   0  1  0
   241  74   0   9  12   0  1  0
   242  74   0  11  12   0  1  0
   243  74   0   9  12   0  1  0
   244  74   0  11  12   0  1  0
   245  74   0   9  12   0  1  0
   246  74   0  11  12   0  1  0
   247  74   0   9  12   0  1  0
   248  74   0  11  12   0  1  0
   249  74   0   9  12   0  1  0
   250  74   0  11  12   0  1  0
   251  74   0   9  12   0  1  0
   252  74   0  11  12   0  1  0
   253  74   0   9  12   0  1  0
   254  74   0  11  12   0  1  0
   255  74   0   9  12   0  1  0
   256  74   0  11  12   0  1  0
   257  74   0   9  12   0  1  0
   258  74   0  11  12   0  1  0
   259  74   0   9  12   0  1  0
   260  74   0  11  12   0  1  0
   261  74   0   9  12   0  1  0
   262  74   0  11  12   0  1  0
   263  74   0   9  12   0  1  0
   264  74   0  11  12   0  1  0
   265  74   0   9  12   0  1  0
   266  74   0  11  12   0  1  0
   267  74   0   9  12   0  1  0
   268  74   0  11  12   0  1  0
   269  74   0   9  12   0  1  0
   270  74   0  11  12   0  1  0
   271  74   0   9  12   0  1  0
   272  74   0  11  12   0  1  0
   273  74   0   9  12   0  1  0
   274  74   0  11  12   0  1  0
   275  74   0   9  12   0  1  0
   276  74   0  11  12   0  1  0
   277  74   0   9  12   0  1  0
   278  74   0  11  12   0  1  0
   279  74   0   9  12   0  1  0
   280  74   0  11  12   0  1  0
   281  74   0   9  12   0  1  0
   282  74   0  11  12   0  1  0
[RF]
1      125.217 1 2 3 100 -406.047 8.10205
2      329.152 4 5 0 100 -18000 171.217
3      658.303 4 5 0 110 24000 226.195
4      329.152 4 5 0 100 -10000 95.8186
5      658.303 4 5 0 110 -13333.3 -125.664
6      329.152 4 5 0 100 -2000 20.4204
7      658.303 4 5 0 110 2666.67 25.1327
8      329.152 4 5 0 100 6000 -54.9779
9      658.303 4 5 0 110 8000 75.3982
10      329.152 4 5 0 100 14000 -130.376
11      658.303 4 5 0 110 -18666.7 -175.929
12      329.152 4 5 0 100 -14000 133.518
13      329.152 4 5 0 100 -6000 58.1195
14      329.152 4 5 0 100 2000 -17.2788
15      329.152 4 5 0 100 10000 -92.677
16      329.152 4 5 0 100 18000 -168.075

# Format of arbitrary gradients:
#   time_shape_id of 0 means default timing (stepping with grad_raster starting at 1/2 of grad_raster)
# id amplitude amp_shape_id time_shape_id delay
# ..      Hz/m       ..         ..          us
[GRADIENTS]
10            0 6 7 690
12            0 8 9 0
13            0 10 11 0
16     -64935.1 12 7 690
17     -64935.1 13 9 0
18     -64935.1 14 11 0
20      -181818 15 16 690
21      -181818 17 18 0
22      -181818 19 16 0
23       451344 20 0 0
24 -2.80958e+06 20 0 0
25 -7.91708e+06 20 0 0
26       451344 21 0 0
27 -2.80958e+06 21 0 0
28 -7.91708e+06 21 0 0
29  2.60703e+06 20 0 0
30 -1.71929e+06 20 0 0
31  7.81185e+06 20 0 0
32  2.60703e+06 21 0 0
33 -1.71929e+06 21 0 0
34  7.81185e+06 21 0 0
35  6.32627e+06 20 0 0
36      -638945 20 0 0
37  5.50886e+06 20 0 0
38  6.32627e+06 21 0 0
39      -638945 21 0 0
40  5.50886e+06 21 0 0
41  7.96483e+06 20 0 0
42   1.3145e+06 20 0 0
43 -2.36878e+06 20 0 0
44  7.96483e+06 21 0 0
45   1.3145e+06 21 0 0
46 -2.36878e+06 21 0 0
47  4.92508e+06 20 0 0
48 -5.15482e+06 20 0 0
49  4.46643e+06 20 0 0
50  4.92508e+06 21 0 0
51 -5.15482e+06 21 0 0
52  4.46643e+06 21 0 0
53 -3.74608e+06 20 0 0
54 -6.64818e+06 20 0 0
55 -3.54205e+06 20 0 0
56 -3.74608e+06 21 0 0
57 -6.64818e+06 21 0 0
58 -3.54205e+06 21 0 0
59  5.26663e+06 20 0 0
60      -626485 20 0 0
61 -6.53052e+06 20 0 0
62  5.26663e+06 21 0 0
63      -626485 21 0 0
64 -6.53052e+06 21 0 0
65  3.04766e+06 20 0 0
66 -5.52694e+06 20 0 0
67 -5.56257e+06 20 0 0
68  3.04766e+06 21 0 0
69 -5.52694e+06 21 0 0
70 -5.56257e+06 21 0 0
71   7.9664e+06 20 0 0
72 -2.37345e+06 20 0 0
73  1.29646e+06 20 0 0
74   7.9664e+06 21 0 0
75 -2.37345e+06 21 0 0
76  1.29646e+06 21 0 0
77       453479 20 0 0
78 -7.89932e+06 20 0 0
79 -2.85877e+06 20 0 0
80       453479 21 0 0
81 -7.89932e+06 21 0 0
82 -2.85877e+06 21 0 0
83  -7.4707e+06 20 0 0
84 -2.72865e+06 20 0 0
85 -2.74237e+06 20 0 0
86  -7.4707e+06 21 0 0
87 -2.72865e+06 21 0 0
88 -2.74237e+06 21 0 0
89  6.96792e+06 20 0 0
90 -3.32176e+06 20 0 0
91 -3.34537e+06 20 0 0
92  6.96792e+06 21 0 0
93 -3.32176e+06 21 0 0
94 -3.34537e+06 21 0 0
95 -3.74734e+06 20 0 0
96 -3.50258e+06 20 0 0
97 -6.66835e+06 20 0 0
98 -3.74734e+06 21 0 0
99 -3.50258e+06 21 0 0
100 -6.66835e+06 21 0 0
101   1.8926e+06 20 0 0
102  -7.9633e+06 20 0 0
103  1.94461e+06 20 0 0
104   1.8926e+06 21 0 0
105  -7.9633e+06 21 0 0
106  1.94461e+06 21 0 0
107  5.26915e+06 20 0 0
108 -6.52425e+06 20 0 0
109      -669145 20 0 0
110  5.26915e+06 21 0 0
111 -6.52425e+06 21 0 0
112      -669145 21 0 0
113 -1.88833e+06 20 0 0
114 -1.99471e+06 20 0 0
115  7.95191e+06 20 0 0
116 -1.88833e+06 21 0 0
117 -1.99471e+06 21 0 0
118  7.95191e+06 21 0 0
119 -6.32368e+06 20 0 0
120 -5.51538e+06 20 0 0
121       607637 20 0 0
122 -6.32368e+06 21 0 0
123 -5.51538e+06 21 0 0
124       607637 21 0 0
125 -2.60295e+06 20 0 0
126 -7.82345e+06 20 0 0
127  1.67206e+06 20 0 0
128 -2.60295e+06 21 0 0
129 -7.82345e+06 21 0 0
130  1.67206e+06 21 0 0
131      2589.08 20 0 0
132 -5.96723e+06 20 0 0
133   5.9304e+06 20 0 0
134      2589.08 21 0 0
135 -5.96723e+06 21 0 0
136   5.9304e+06 21 0 0
137 -4.92093e+06 20 0 0
138 -4.50036e+06 20 0 0
139   5.1292e+06 20 0 0
140 -4.92093e+06 21 0 0
141 -4.50036e+06 21 0 0
142   5.1292e+06 21 0 0

# Format of trapezoid gradients:
# id amplitude rise flat fall delay
# ..      Hz/m   us   us   us    us
[TRAP]
 1  1.02182e+06 500 2500 500   0
 2 -1.02182e+06 500 2500 500   0
 3       666667  80 3000  80  20
 4 -2.93333e+06 350    0 350   0
 5       811149 100  750 100   0
 6      -888889 110 3000 110   0
 7            0 130  260 130   0
 8 -1.29996e+06 260    0 260   0
 9  1.82698e+06 370    0 370   0
11 -1.82698e+06 370    0 370   0
14       888889 110 3000 110   0
15       198135 130  260 130   0
19       481283 180  160 180   0

# Format of ADC events:
# id num dwell delay freq phase
# ..  ..    ns    us   Hz   rad
[ADC]
1 264 2400 53 0 0

# Format of extension lists:
# id type ref next_id
# next_id of 0 terminates the list
# Extension list is followed by extension specifications
[EXTENSIONS]
1 1 1 0
2 1 2 0

# Extension specification for digital output and input triggers:
# id type channel delay (us) duration (us)
extension TRIGGERS 1
1 2 1 0 1000
2 1 1 0 100

# Sequence Shapes
[SHAPES]

shape_id 1
num_samples 512
0.0340033294
0.0349135437
0.0358444095
0.036796282
0.0377695192
0.038764482
0.0397815337
0.0408210405
0.0418833709
0.042968896
0.0440779891
0.0452110257
0.0463683837
0.0475504426
0.0487575844
0.0499901923
0.0512486517
0.0525333493
0.0538446733
0.0551830134
0.0565487603
0.0579423058
0.0593640428
0.0608143648
0.062293666
0.0638023412
0.0653407853
0.0669093937
0.0685085616
0.0701386842
0.0718001561
0.0734933717
0.0752187248
0.0769766081
0.0787674134
0.0805915313
0.0824493509
0.0843412599
0.086267644
0.0882288869
0.0902253703
0.0922574732
0.0943255722
0.0964300408
0.0985712498
0.100749566
0.102965354
0.105218973
0.107510779
0.109841125
0.112210357
0.114618818
0.117066845
0.119554772
0.122082925
0.124651626
0.127261189
0.129911925
0.132604135
0.135338116
0.138114157
0.140932539
0.143793537
0.146697417
0.149644436
0.152634846
0.155668888
0.158746793
0.161868786
0.16503508
0.16824588
0.171501378
0.174801761
0.1781472
0.181537859
0.184973888
0.188455429
0.191982609
0.195555546
0.199174343
0.202839093
0.206549875
0.210306756
0.214109787
0.21795901
0.221854449
0.225796116
0.22978401
0.233818112
0.237898391
0.2420248
0.246197277
0.250415744
0.254680108
0.258990259
0.263346071
0.267747404
0.272194097
0.276685975
0.281222847
0.285804501
0.29043071
0.295101231
0.299815799
0.304574133
0.309375936
0.314220889
0.319108656
0.324038884
0.329011198
0.334025207
0.3390805
0.344176644
0.349313192
0.354489674
0.359705601
0.364960466
0.370253739
0.375584875
0.380953304
0.386358442
0.391799679
0.397276391
0.402787929
0.408333627
0.4139128
0.41952474
0.42516872
0.430843996
0.436549801
0.44228535
0.448049836
0.453842436
0.459662305
0.465508579
0.471380375
0.47727679
0.483196905
0.489139777
0.495104449
0.501089944
0.507095264
0.513119396
0.519161309
0.525219952
0.531294259
0.537383143
0.543485505
0.549600226
0.55572617
0.561862186
0.568007108
0.574159753
0.580318923
0.586483405
0.592651971
0.59882338
0.604996376
0.61116969
0.61734204
0.623512131
0.629678655
0.635840294
0.641995716
0.648143581
0.654282536
0.660411218
0.666528256
0.672632269
0.678721867
0.684795653
0.69085222
0.696890157
0.702908044
0.708904455
0.71487796
0.720827123
0.726750505
0.73264666
0.738514141
0.744351499
0.75015728
0.755930032
0.7616683
0.767370628
0.773035561
0.778661645
0.784247429
0.789791461
0.795292294
0.800748482
0.806158587
0.81152117
0.816834803
0.822098059
0.82730952
0.832467776
0.837571421
0.842619061
0.847609309
0.852540788
0.857412132
0.862221986
0.866969004
0.871651855
0.876269219
0.880819791
0.885302277
0.889715402
0.894057902
0.89832853
0.902526058
0.90664927
0.910696973
0.914667987
0.918561155
0.922375336
0.926109411
0.92976228
0.933332865
0.936820109
0.940222976
0.943540453
0.946771551
0.949915304
0.952970769
0.955937027
0.958813187
0.961598379
0.964291762
0.96689252
0.969399864
0.971813031
0.974131286
0.976353921
0.978480259
0.980509647
0.982441465
0.984275119
0.986010045
0.98764571
0.989181611
0.990617273
0.991952253
0.993186139
0.99431855
0.995349135
0.996277574
0.99710358
0.997826898
0.998447302
0.9989646
0.999378631
0.999689267
0.999896412
1
1
0.999896412
0.999689267
0.999378631
0.9989646
0.998447302
0.997826898
0.99710358
0.996277574
0.995349135
0.99431855
0.993186139
0.991952253
0.990617273
0.989181611
0.98764571
0.986010045
0.984275119
0.982441465
0.980509647
0.978480259
0.976353921
0.974131286
0.971813031
0.969399864
0.96689252
0.964291762
0.961598379
0.958813187
0.955937027
0.952970769
0.949915304
0.946771551
0.943540453
0.940222976
0.936820109
0.933332865
0.92976228
0.926109411
0.922375336
0.918561155
0.914667987
0.910696973
0.90664927
0.902526058
0.89832853
0.894057902
0.889715402
0.885302277
0.880819791
0.876269219
0.871651855
0.866969004
0.862221986
0.857412132
0.852540788
0.847609309
0.842619061
0.837571421
0.832467776
0.82730952
0.822098059
0.816834803
0.81152117
0.806158587
0.800748482
0.795292294
0.789791461
0.784247429
0.778661645
0.773035561
0.767370628
0.7616683
0.755930032
0.75015728
0.744351499
0.738514141
0.73264666
0.726750505
0.720827123
0.71487796
0.708904455
0.702908044
0.696890157
0.69085222
0.684795653
0.678721867
0.672632269
0.666528256
0.660411218
0.654282536
0.648143581
0.641995716
0.635840294
0.629678655
0.623512131
0.61734204
0.61116969
0.604996376
0.59882338
0.592651971
0.586483405
0.580318923
0.574159753
0.568007108
0.561862186
0.55572617
0.549600226
0.543485505
0.537383143
0.531294259
0.525219952
0.519161309
0.513119396
0.507095264
0.501089944
0.495104449
0.489139777
0.483196905
0.47727679
0.471380375
0.465508579
0.459662305
0.453842436
0.448049836
0.44228535
0.436549801
0.430843996
0.42516872
0.41952474
0.4139128
0.408333627
0.402787929
0.397276391
0.391799679
0.386358442
0.380953304
0.375584875
0.370253739
0.364960466
0.359705601
0.354489674
0.349313192
0.344176644
0.3390805
0.334025207
0.329011198
0.324038884
0.319108656
0.314220889
0.309375936
0.304574133
0.299815799
0.295101231
0.29043071
0.285804501
0.281222847
0.276685975
0.272194097
0.267747404
0.263346071
0.258990259
0.254680108
0.250415744
0.246197277
0.2420248
0.237898391
0.233818112
0.22978401
0.225796116
0.221854449
0.21795901
0.214109787
0.210306756
0.206549875
0.202839093
0.199174343
0.195555546
0.191982609
0.188455429
0.184973888
0.181537859
0.1781472
0.174801761
0.171501378
0.16824588
0.16503508
0.161868786
0.158746793
0.155668888
0.152634846
0.149644436
0.146697417
0.143793537
0.140932539
0.138114157
0.135338116
0.132604135
0.129911925
0.127261189
0.124651626
0.122082925
0.119554772
0.117066845
0.114618818
0.112210357
0.109841125
0.107510779
0.105218973
0.102965354
0.100749566
0.0985712498
0.0964300408
0.0943255722
0.0922574732
0.0902253703
0.0882288869
0.086267644
0.0843412599
0.0824493509
0.0805915313
0.0787674134
0.0769766081
0.0752187248
0.0734933717
0.0718001561
0.0701386842
0.0685085616
0.0669093937
0.0653407853
0.0638023412
0.062293666
0.0608143648
0.0593640428
0.0579423058
0.0565487603
0.0551830134
0.0538446733
0.0525333493
0.0512486517
0.0499901923
0.0487575844
0.0475504426
0.0463683837
0.0452110257
0.0440779891
0.042968896
0.0418833709
0.0408210405
0.0397815337
0.038764482
0.0377695192
0.036796282
0.0358444095
0.0349135437
0.0340033294

shape_id 2
num_samples 512
0
0
510

shape_id 3
num_samples 512
5
10
10
509

shape_id 4
num_samples 3000
9.14157145e-11
2.46985517e-09
1.14419998e-08
3.14172076e-08
6.68159063e-08
1.22069341e-07
2.01619321e-07
3.09917965e-07
4.51427445e-07
6.30619731e-07
8.51976334e-07
1.11998804e-06
1.43915468e-06
1.81398481e-06
2.24899552e-06
2.74871213e-06
3.31766794e-06
3.96040395e-06
4.68146863e-06
5.48541761e-06
6.37681346e-06
7.36022539e-06
8.44022899e-06
9.62140598e-06
1.09083439e-05
1.23056359e-05
1.38178804e-05
1.54496809e-05
1.72056456e-05
1.90903871e-05
2.11085226e-05
2.32646727e-05
2.5563462e-05
2.80095185e-05
3.06074732e-05
3.33619599e-05
3.6277615e-05
3.93590773e-05
4.26109873e-05
4.60379876e-05
4.96447219e-05
5.34358353e-05
5.74159736e-05
6.15897832e-05
6.59619109e-05
7.05370036e-05
7.53197076e-05
8.0314669e-05
8.5526533e-05
9.09599435e-05
9.66195432e-05
0.000102509973
0.000108635872
0.000115001876
0.000121612621
0.000128472737
0.000135586852
0.000142959591
0.000150595575
0.000158499421
0.000166675742
0.000175129145
0.000183864235
0.00019288561
0.000202197861
0.000211805575
0.000221713335
0.000231925713
0.000242447278
0.000253282591
0.000264436206
0.000275912667
0.000287716515
0.000299852279
0.000312324481
0.000325137633
0.000338296241
0.000351804799
0.000365667792
0.000379889695
0.000394474974
0.000409428083
0.000424753467
0.000440455557
0.000456538775
0.000473007532
0.000489866224
0.000507119238
0.000524770946
0.000542825708
0.000561287871
0.000580161769
0.000599451722
0.000619162034
0.000639296997
0.000659860888
0.000680857968
0.000702292483
0.000724168666
0.000746490729
0.000769262873
0.000792489279
0.000816174114
0.000840321525
0.000864935645
0.000890020586
0.000915580444
0.000941619297
0.000968141203
0.000995150203
0.00102265032
0.00105064555
0.00107913988
0.00110813726
0.00113764165
0.00116765696
0.00119818709
0.00122923593
0.00126080731
0.0012929051
0.00132553309
0.00135869507
0.00139239482
0.00142663608
0.00146142258
0.001496758
0.00153264603
0.00156909032
0.00160609449
0.00164366214
0.00168179686
0.00172050218
0.00175978164
0.00179963874
0.00184007694
0.0018810997
0.00192271043
0.00196491254
0.00200770937
0.00205110429
0.00209510058
0.00213970154
0.00218491041
0.00223073043
0.00227716478
0.00232421664
0.00237188914
0.00242018539
0.00246910847
0.00251866141
0.00256884724
0.00261966894
0.00267112947
0.00272323174
0.00277597864
0.00282937304
0.00288341775
0.00293811558
0.00299346927
0.00304948156
0.00310615513
0.00316349266
0.00322149675
0.00328017001
0.00333951498
0.00339953419
0.00346023013
0.00352160525
0.00358366195
0.00364640262
0.00370982961
0.00377394521
0.0038387517
0.00390425132
0.00397044624
0.00403733864
0.00410493063
0.0041732243
0.00424222169
0.0043119248
0.0043823356
0.00445345601
0.00452528793
0.00459783321
0.00467109365
0.00474507101
0.00481976704
0.00489518341
0.00497132178
0.00504818374
0.00512577087
0.00520408468
0.00528312666
0.00536289824
0.00544340083
0.00552463578
0.00560660439
0.00568930794
0.00577274766
0.00585692471
0.00594184025
0.00602749537
0.00611389112
0.00620102849
0.00628890846
0.00637753194
0.0064668998
0.00655701287
0.00664787193
0.00673947771
0.0068318309
0.00692493214
0.00701878203
0.00711338112
0.00720872992
0.00730482887
0.00740167838
0.00749927883
0.00759763052
0.00769673371
0.00779658862
0.00789719543
0.00799855425
0.00810066516
0.00820352817
0.00830714327
0.00841151037
0.00851662936
0.00862250005
0.00872912223
0.00883649561
0.00894461988
0.00905349466
0.00916311953
0.009273494
0.00938461754
0.00949648959
0.00960910951
0.00972247662
0.00983659019
0.00995144942
0.0100670535
0.0101834015
0.0103004925
0.0104183255
0.0105368995
0.0106562134
0.0107762659
0.0108970559
0.0110185822
0.0111408434
0.0112638382
0.0113875651
0.0115120227
0.0116372094
0.0117631237
0.0118897639
0.0120171282
0.0121452151
0.0122740227
0.012403549
0.0125337923
0.0126647504
0.0127964215
0.0129288035
0.0130618941
0.0131956912
0.0133301926
0.013465396
0.0136012989
0.013737899
0.0138751939
0.0140131809
0.0141518575
0.0142912211
0.0144312689
0.0145719983
0.0147134063
0.0148554902
0.0149982469
0.0151416736
0.0152857671
0.0154305243
0.0155759422
0.0157220175
0.0158687469
0.0160161271
0.0161641547
0.0163128262
0.0164621382
0.016612087
0.0167626691
0.0169138808
0.0170657182
0.0172181778
0.0173712555
0.0175249474
0.0176792496
0.0178341581
0.0179896688
0.0181457774
0.0183024798
0.0184597717
0.0186176488
0.0187761068
0.018935141
0.0190947471
0.0192549205
0.0194156565
0.0195769504
0.0197387976
0.0199011931
0.0200641322
0.0202276099
0.0203916212
0.0205561611
0.0207212245
0.0208868062
0.0210529009
0.0212195035
0.0213866084
0.0215542105
0.0217223041
0.0218908838
0.0220599439
0.0222294789
0.022399483
0.0225699504
0.0227408754
0.022912252
0.0230840744
0.0232563364
0.023429032
0.0236021552
0.0237756997
0.0239496593
0.0241240276
0.0242987984
0.0244739651
0.0246495214
0.0248254606
0.0250017762
0.0251784614
0.0253555097
0.0255329141
0.0257106678
0.025888764
0.0260671957
0.0262459559
0.0264250374
0.0266044332
0.026784136
0.0269641386
0.0271444336
0.0273250137
0.0275058715
0.0276869995
0.02786839
0.0280500355
0.0282319284
0.0284140608
0.028596425
0.0287790131
0.0289618173
0.0291448296
0.0293280419
0.0295114461
0.0296950342
0.0298787979
0.030062729
0.0302468191
0.0304310599
0.0306154429
0.0307999597
0.0309846017
0.0311693603
0.0313542268
0.0315391926
0.0317242489
0.0319093867
0.0320945973
0.0322798717
0.0324652008
0.0326505757
0.0328359871
0.033021426
0.0332068831
0.0333923492
0.0335778148
0.0337632706
0.0339487071
0.0341341149
0.0343194843
0.0345048057
0.0346900696
0.034875266
0.0350603854
0.0352454177
0.0354303533
0.035615182
0.0357998938
0.0359844789
0.0361689269
0.0363532278
0.0365373714
0.0367213474
0.0369051454
0.0370887552
0.0372721662
0.037455368
0.0376383501
0.0378211018
0.0380036126
0.0381858718
0.0383678685
0.0385495921
0.0387310317
0.0389121764
0.0390930153
0.0392735373
0.0394537315
0.0396335866
0.0398130917
0.0399922355
0.0401710067
0.0403493941
0.0405273863
0.040704972
0.0408821396
0.0410588778
0.0412351749
0.0414110195
0.0415863998
0.0417613042
0.041935721
0.0421096384
0.0422830446
0.0424559277
0.0426282758
0.042800077
0.0429713192
0.0431419904
0.0433120786
0.0434815715
0.0436504571
0.043818723
0.043986357
0.0441533468
0.0443196801
0.0444853444
0.0446503273
0.0448146163
0.0449781989
0.0451410625
0.0453031945
0.0454645823
0.0456252131
0.0457850743
0.045944153
0.0461024364
0.0462599117
0.0464165659
0.0465723862
0.0467273596
0.046881473
0.0470347135
0.0471870678
0.0473385229
0.0474890656
0.0476386828
0.0477873611
0.0479350873
0.0480818481
0.0482276301
0.0483724199
0.0485162042
0.0486589695
0.0488007022
0.0489413889
0.049081016
0.0492195698
0.0493570369
0.0494934035
0.0496286559
0.0497627804
0.0498957632
0.0500275906
0.0501582488
0.0502877238
0.0504160018
0.050543069
0.0506689113
0.0507935148
0.0509168654
0.0510389492
0.0511597522
0.0512792601
0.051397459
0.0515143346
0.0516298728
0.0517440594
0.0518568802
0.0519683209
0.0520783673
0.052187005
0.0522942199
0.0523999974
0.0525043232
0.052607183
0.0527085623
0.0528084467
0.0529068218
0.0530036729
0.0530989857
0.0531927456
0.0532849381
0.0533755486
0.0534645625
0.0535519652
0.0536377421
0.0537218785
0.0538043597
0.0538851712
0.0539642981
0.0540417258
0.0541174396
0.0541914246
0.0542636662
0.0543341495
0.0544028598
0.0544697821
0.0545349019
0.054598204
0.0546596738
0.0547192964
0.0547770568
0.0548329402
0.0548869318
0.0549390164
0.0549891794
0.0550374056
0.0550836803
0.0551279883
0.0551703148
0.0552106448
0.0552489633
0.0552852554
0.0553195059
0.0553517
0.0553818226
0.0554098587
0.0554357933
0.0554596113
0.0554812978
0.0555008376
0.0555182158
0.0555334174
0.0555464272
0.0555572302
0.0555658114
0.0555721558
0.0555762482
0.0555780737
0.0555776171
0.0555748635
0.0555697977
0.0555624048
0.0555526697
0.0555405773
0.0555261126
0.0555092605
0.0554900061
0.0554683342
0.05544423
0.0554176782
0.055388664
0.0553571723
0.0553231882
0.0552866965
0.0552476823
0.0552061307
0.0551620267
0.0551153553
0.0550661015
0.0550142504
0.0549597871
0.0549026966
0.0548429641
0.0547805746
0.0547155132
0.0546477651
0.0545773154
0.0545041492
0.0544282517
0.0543496081
0.0542682036
0.0541840233
0.0540970526
0.0540072766
0.0539146807
0.05381925
0.0537209699
0.0536198256
0.0535158026
0.0534088862
0.0532990617
0.0531863145
0.05307063
0.0529519938
0.0528303911
0.0527058076
0.0525782286
0.0524476398
0.0523140266
0.0521773747
0.0520376696
0.051894897
0.0517490425
0.0516000917
0.0514480304
0.0512928443
0.0511345192
0.0509730408
0.050808395
0.0506405675
0.0504695443
0.0502953113
0.0501178543
0.0499371594
0.0497532126
0.0495659998
0.0493755072
0.0491817207
0.0489846267
0.0487842111
0.0485804603
0.0483733603
0.0481628976
0.0479490584
0.047731829
0.0475111958
0.0472871453
0.0470596638
0.0468287379
0.0465943541
0.0463564989
0.0461151591
0.0458703211
0.0456219717
0.0453700977
0.0451146858
0.0448557228
0.0445931957
0.0443270912
0.0440573963
